time,energy
0.0,-1252.658373378177
0.2,-1238.7891912610512
0.4,-1233.144560263258
0.6,-1230.0521825688377
0.8,-1227.7427712913936
1.0,-1225.6962780146434
1.2,-1223.6999393535211
1.4000000000000001,-1221.5834632286837
1.6,-1219.119400215793
1.8,-1216.3388499917555
2.0,-1213.813781229272
2.2,-1211.643067187056
2.4,-1209.694264985912
2.6,-1207.605291198508
2.8000000000000003,-1205.915387968159
3.0,-1204.3875675465829
3.2,-1202.90618434875
3.4,-1201.4520066919697
3.6,-1200.0135659644575
3.8000000000000003,-1198.5811556674564
4.0,-1197.1429649535696
4.2,-1195.6797259302773
4.4,-1194.155294415114
4.6000000000000005,-1192.5131780742097
4.8,-1190.743680620372
5.0,-1188.983277383265
5.2,-1187.3393812228906
5.4,-1185.795652006549
5.6000000000000005,-1184.3292787197813
5.8,-1182.9312908440838
6.0,-1181.5903152772912
6.2,-1180.2926787749611
6.4,-1179.026805394578
6.6000000000000005,-1177.7845202101396
6.8,-1176.560435824575
7.0,-1175.3510256145905
7.2,-1174.1538913473034
7.4,-1172.9672406203867
7.6000000000000005,-1171.7895076831069
7.8,-1170.6190676071967
8.0,-1169.4539909761309
8.2,-1168.2917533260113
8.4,-1167.1287464626346
8.6,-1165.9593378319216
8.8,-1164.7740591152167
9.0,-1163.5563614024768
9.200000000000001,-1162.2815184824888
9.4,-1160.934701904475
9.6,-1159.5556468732884
9.8,-1158.2187554196687
10.0,-1156.9517581447542
10.200000000000001,-1155.7427154845482
10.4,-1154.5755814613547
10.6,-1153.4382523951947
10.8,-1152.3218354504354
11.0,-1151.219918294549
11.200000000000001,-1150.128020676128
11.4,-1149.0430652781217
11.6,-1147.962939372614
11.8,-1146.8861813851063
12.0,-1145.8117729013056
12.200000000000001,-1144.7390016047007
12.4,-1143.667365726266
12.6,-1142.5965013173957
12.8,-1141.5261238406454
13.0,-1140.455981783226
13.200000000000001,-1139.3858209502498
13.4,-1138.3153556075815
13.6,-1137.2442396990853
13.8,-1136.1720297901206
14.0,-1135.0981312712145
14.200000000000001,-1134.0217203935035
14.4,-1132.9416382946438
14.6,-1131.856263669414
14.8,-1130.7633928121052
15.0,-1129.6601763372983
15.200000000000001,-1128.5431037108817
15.4,-1127.4077765186369
15.6,-1126.2482856091701
15.8,-1125.0591016635265
16.0,-1123.8476462457847
16.2,-1122.6469078222453
16.4,-1121.4904512281178
16.6,-1120.3827583839068
16.8,-1119.3111413025104
17.0,-1118.2634579649819
17.2,-1117.2322269739157
17.400000000000002,-1116.213329875799
17.6,-1115.2045157646605
17.8,-1114.2045211633908
18.0,-1113.2126132870335
18.2,-1112.2283540150834
18.400000000000002,-1111.2514732707048
18.6,-1110.2817967097444
18.8,-1109.3192006203706
19.0,-1108.363580898227
19.2,-1107.4148302109827
19.400000000000002,-1106.4728211001252
19.6,-1105.537394117255
19.8,-1104.6083500740226
20.0,-1103.685444965184
20.2,-1102.768385727226
20.400000000000002,-1101.8568249308487
20.6,-1100.950352677246
20.8,-1100.0484842421874
21.0,-1099.1506424686374
21.2,-1098.2561350631584
21.400000000000002,-1097.364130042795
21.6,-1096.4736398991747
21.8,-1095.5835395547588
22.0,-1094.6926648022582
22.2,-1093.8000518484307
22.400000000000002,-1092.9053385297686
22.6,-1092.0091945508068
22.8,-1091.113435977303
23.0,-1090.2204999110104
23.2,-1089.3324211015122
23.400000000000002,-1088.4499156569152
23.6,-1087.5719830599737
23.8,-1086.6958186637507
24.0,-1085.8165541869466
24.2,-1084.9268593021557
24.400000000000002,-1084.0183301845832
24.6,-1083.0889624381905
24.8,-1082.1531923800374
25.0,-1081.2337908545865
25.2,-1080.340580099657
25.400000000000002,-1079.4688712707061
25.6,-1078.6106229141733
25.8,-1077.7599731985129
26.0,-1076.9135070986574
26.2,-1076.0693537950094
26.400000000000002,-1075.2264912284636
26.6,-1074.3843558346482
26.8,-1073.542639270834
27.0,-1072.70118211979
27.2,-1071.8599162700068
27.400000000000002,-1071.0188322316174
27.6,-1070.177959787943
27.8,-1069.3373560463572
28.0,-1068.4970975710514
28.2,-1067.657274548728
28.400000000000002,-1066.8179856207796
28.6,-1065.979332422325
28.8,-1065.141413115044
29.0,-1064.3043143432203
29.2,-1063.4681011469386
29.400000000000002,-1062.6328045591306
29.6,-1061.7984071549326
29.8,-1060.9648282419407
30.0,-1060.1319136834954
30.2,-1059.2994421049304
30.400000000000002,-1058.46716953946
30.6,-1057.634913041972
30.8,-1056.8017535849453
31.0,-1055.9301928858038
31.2,-1054.9180368675563
31.400000000000002,-1054.075203074559
31.6,-1053.2516763707279
31.8,-1052.4340176029154
32.0,-1051.6236600071363
32.2,-1050.8213802205398
32.4,-1050.0272288936512
32.6,-1049.2408492331062
32.8,-1048.461725973739
33.0,-1047.6893288553633
33.2,-1046.9231732388796
33.4,-1046.1628316567046
33.6,-1045.407921322272
33.8,-1044.6580803985646
34.0,-1043.9129362550468
34.2,-1043.172061764594
34.4,-1042.434908012672
34.6,-1041.700690204747
34.800000000000004,-1040.9681865672403
35.0,-1040.2353995478645
35.2,-1039.4990994592597
35.4,-1038.754682726408
35.6,-1037.9978600373836
35.800000000000004,-1037.2298618369302
36.0,-1036.4617029732672
36.2,-1035.7074710280974
36.4,-1034.973085091185
36.6,-1034.255901046657
36.800000000000004,-1033.5505001038605
37.0,-1032.8515758064868
37.2,-1032.157856325493
37.4,-1031.4698072470433
37.6,-1030.7851749906863
37.800000000000004,-1030.1028126524702
38.0,-1029.422207785502
38.2,-1028.7430098714735
38.4,-1028.0649298749788
38.6,-1027.3877116299357
38.800000000000004,-1026.7111184754176
39.0,-1026.034924538909
39.2,-1025.3589074043266
39.4,-1024.6828403140146
39.6,-1024.00648221244
39.800000000000004,-1023.3295635462067
40.0,-1022.6517648380359
40.2,-1021.9726835654195
40.4,-1021.2917829079308
40.6,-1020.6083146893401
40.800000000000004,-1019.9212131585706
41.0,-1019.2289804300287
41.2,-1018.529659870868
41.4,-1017.8211515028961
41.6,-1017.1022568364829
41.800000000000004,-1016.3744337994576
42.0,-1015.6428319677773
42.2,-1014.9145360046591
42.4,-1014.1948754604653
42.6,-1013.4854705548755
42.800000000000004,-1012.7851758083466
43.0,-1012.0918971457945
43.2,-1011.4037122346822
43.4,-1010.7192145628837
43.6,-1010.0374845551703
43.800000000000004,-1009.3579639839845
44.0,-1008.6803396597682
44.2,-1008.0044592449094
44.4,-1007.3302753785506
44.6,-1006.657809620828
44.800000000000004,-1005.9871291467177
45.0,-1005.3183313527553
45.2,-1004.6515332949598
45.4,-1003.9868640543336
45.6,-1003.3244588812381
45.800000000000004,-1002.6644544523461
46.0,-1002.0069848839626
46.2,-1001.3521783327153
46.4,-1000.7001540809961
46.6,-1000.0510199614106
46.800000000000004,-999.4048699343842
47.0,-998.7617816619306
47.2,-998.121813830823
47.4,-997.4850026752373
47.6,-996.8513567652992
47.800000000000004,-996.2208485764996
48.0,-995.5934002755015
48.2,-994.9688590445019
48.4,-994.3469533270569
48.6,-993.727214542218
48.800000000000004,-993.1088391603932
49.0,-992.4904622733633
49.2,-991.8698604357795
49.4,-991.2438378804188
49.6,-990.6091511267282
49.800000000000004,-989.9655905581893
50.0,-989.3194327243693
50.2,-988.681049046047
50.4,-988.0571271086108
50.6,-987.4476437384031
50.800000000000004,-986.8491349200549
51.0,-986.2579607882637
51.2,-985.6713305480869
51.4,-985.087159482514
51.6,-984.5036954825032
51.800000000000004,-983.9192364904643
52.0,-983.3320493997423
52.2,-982.7406230410036
52.4,-982.1443753737644
52.6,-981.5445811038992
52.800000000000004,-980.9446216403231
53.0,-980.3487398225741
53.2,-979.7600397766279
53.4,-979.179472605041
53.6,-978.6062888845115
53.800000000000004,-978.0390226646068
54.0,-977.476191990473
54.2,-976.9165813351156
54.4,-976.3592769881711
54.6,-975.8036127373066
54.800000000000004,-975.2491028459655
55.0,-974.6953874816612
55.2,-974.1421940275171
55.4,-973.5893112424684
55.6,-973.036572440027
55.800000000000004,-972.4838446150402
56.0,-971.9310213650112
56.2,-971.3780181753842
56.4,-970.8247691459733
56.6,-970.2712245828834
56.800000000000004,-969.717349118366
57.0,-969.1631201824947
57.2,-968.608526752235
57.4,-968.0535683558205
57.6,-967.4982543239012
57.800000000000004,-966.9426032680514
58.0,-966.386642746906
58.2,-965.8304090630647
58.4,-965.2739471268093
58.6,-964.7173103263909
58.800000000000004,-964.160560356188
59.0,-963.6037669688766
59.2,-963.047007632181
59.4,-962.4903670824513
59.6,-961.9339367755215
59.800000000000004,-961.3778142402357
60.0,-960.8221023423441
60.2,-960.2669084669426
60.4,-959.7123436267527
60.6,-959.1585215017503
60.800000000000004,-958.6055574129557
61.0,-958.0535672294556
61.2,-957.5026662025755
61.4,-956.9529677138073
61.6,-956.4045819125292
61.800000000000004,-955.8576142039999
62.0,-955.3121635249436
62.2,-954.7683203090088
62.4,-954.2261639910644
62.6,-953.6857598175753
62.800000000000004,-953.1471546049412
63.0,-952.6103708969674
63.2,-952.0753986888842
63.4,-951.5421834855139
63.6,-951.0106089644459
63.800000000000004,-950.480472100882
64.0,-949.9514489261509
64.2,-949.4230519508156
64.4,-948.894589853043
64.6,-948.3651633836379
64.8,-947.8337725813242
65.0,-947.2996441147794
65.2,-946.7628020194666
65.4,-946.2246531307997
65.6,-945.6878574843402
65.8,-945.1553071326964
66.0,-944.6287462119552
66.2,-944.1080983906852
66.4,-943.5916291861689
66.6,-943.0764055612694
66.8,-942.5588574954617
67.0,-942.0360505019753
67.2,-941.5082249792343
67.4,-940.9806239186292
67.6,-940.4607351127764
67.8,-939.9528950140079
68.0,-939.4567817269949
68.2,-938.969808371835
68.4,-938.4893495097483
68.60000000000001,-938.0134929822696
68.8,-937.5409997940347
69.0,-937.0710874500113
69.2,-936.6032500330734
69.4,-936.1371431518996
69.60000000000001,-935.6725164924908
69.8,-935.2091753049473
70.0,-934.7469584352843
70.2,-934.2857256923007
70.4,-933.8253505248612
70.60000000000001,-933.3657157727735
70.8,-932.9067112303463
71.0,-932.4482322952719
71.2,-931.9901792727039
71.4,-931.5324570747506
71.60000000000001,-931.0749751563039
71.8,-930.6176475892524
72.0,-930.1603932148997
72.2,-929.7031358378665
72.4,-929.245804439164
72.60000000000001,-928.7883333948876
72.8,-928.3306626921349
73.0,-927.8727381366278
73.2,-927.4145115480671
73.4,-926.9559409399427
73.60000000000001,-926.4969906808212
73.8,-926.0376316340952
74.0,-925.5778412730838
74.2,-925.1176037681505
74.4,-924.6569100422732
74.60000000000001,-924.1957577912062
74.8,-923.7341514640314
75.0,-923.2721021994228
75.2,-922.8096277123461
75.4,-922.3467521250499
75.60000000000001,-921.8835057349619
75.8,-921.4199247102288
76.0,-920.9560507009951
76.2,-920.4919303504427
76.4,-920.027614683643
76.60000000000001,-919.5631583432904
76.8,-919.0986186279388
77.0,-918.6340542680845
77.2,-918.1695238448666
77.4,-917.7050837100547
77.60000000000001,-917.240785196664
77.8,-916.776670806836
78.0,-916.312768914911
78.2,-915.8490863202568
78.4,-915.3855977373873
78.60000000000001,-914.9222311002076
78.8,-914.4588476492114
79.0,-913.9952168761142
79.2,-913.5309901213466
79.4,-913.0656858376549
79.60000000000001,-912.5987172631644
79.8,-912.1295157313851
80.0,-911.6578024864424
80.2,-911.1839774785801
80.4,-910.7094004527195
80.60000000000001,-910.2362200055461
80.8,-909.7666779513964
81.0,-909.3023374972661
81.2,-908.843771219391
81.4,-908.3907669667708
81.60000000000001,-907.9427272757127
81.8,-907.4989836578766
82.0,-907.0589536820321
82.2,-906.6221854050251
82.4,-906.1883479199141
82.60000000000001,-905.7572049289364
82.8,-905.3285880028617
83.0,-904.902374945579
83.2,-904.4784738569817
83.4,-904.0568119136182
83.60000000000001,-903.6373276500449
83.8,-903.2199657163712
84.0,-902.8046733506396
84.2,-902.3913980262812
84.4,-901.9800858957035
84.60000000000001,-901.5706807607532
84.8,-901.1631233724638
85.0,-900.7573509068174
85.2,-900.3532964856597
85.4,-899.9508886139049
85.60000000000001,-899.5500503819355
85.8,-899.1506982250806
86.0,-898.7527399177308
86.2,-898.3560712644688
86.4,-897.9605705565638
86.60000000000001,-897.5660891577314
86.8,-897.1724353582032
87.0,-896.7793465889199
87.2,-896.3864419747945
87.4,-895.993143803408
87.60000000000001,-895.5985582858253
87.8,-895.2013335783923
88.0,-894.799618085473
88.2,-894.3914735333292
88.4,-893.9762184315326
88.60000000000001,-893.5562664510944
88.8,-893.1370846792031
89.0,-892.7239503252075
89.2,-892.3189184286229
89.4,-891.9210735146172
89.60000000000001,-891.528415594853
89.8,-891.1391211147929
90.0,-890.7518910758179
90.2,-890.365883963236
90.4,-889.9805685013536
90.60000000000001,-889.5956054577366
90.8,-889.2107712165373
91.0,-888.8259120815503
91.2,-888.4409176712614
91.4,-888.0557054748209
91.60000000000001,-887.6702118075054
91.8,-887.2843864333867
92.0,-886.8981893054903
92.2,-886.5115885400716
92.4,-886.1245591137437
92.60000000000001,-885.7370819804919
92.8,-885.3491434225576
93.0,-884.9607345144962
93.2,-884.5718506147805
93.4,-884.1824908154694
93.60000000000001,-883.7926572832325
93.8,-883.402354416494
94.0,-883.0115877227626
94.2,-882.6203622846161
94.4,-882.2286806269786
94.60000000000001,-881.8365397147486
94.8,-881.443926690212
95.0,-881.0508127995323
95.2,-880.6571447716103
95.4,-880.2628327740412
95.60000000000001,-879.8677342046228
95.8,-879.471633551883
96.0,-879.0742215988028
96.2,-878.6750844491298
96.4,-878.2737262444588
96.60000000000001,-877.8696659787227
96.8,-877.4626487752635
97.0,-877.0529523859086
97.2,-876.6416296477158
97.4,-876.2304242633818
97.60000000000001,-875.8212626646563
97.8,-875.4156157893485
98.0,-875.0141652331962
98.2,-874.6168956634491
98.4,-874.2233996717822
98.60000000000001,-873.833155401113
98.8,-873.445685217109
99.0,-873.0606134650208
99.2,-872.6776691026083
99.4,-872.2966673035236
99.60000000000001,-871.9174874446197
99.8,-871.540054099202
100.0,-871.164322513124
100.2,-870.790268120394
100.4,-870.417879178948
100.60000000000001,-870.0471516590702
100.8,-869.6780857072562
101.0,-869.310683197519
101.2,-868.9449460315686
101.4,-868.5808749573084
101.60000000000001,-868.218468749522
101.8,-867.8577236469537
102.0,-867.4986329736678
102.2,-867.1411868949899
102.4,-866.7853722733765
102.60000000000001,-866.431172599698
102.8,-866.0785679822069
103.0,-865.7275351802621
103.2,-865.3780476730635
103.4,-865.0300757560004
103.60000000000001,-864.6835866588494
103.8,-864.3385446812448
104.0,-863.9949113417429
104.2,-863.6526455374643
104.4,-863.3117037118038
104.60000000000001,-862.9720400281122
104.8,-862.6336065475655
105.0,-862.2963534097051
105.2,-861.9602290144157
105.4,-861.6251802043115
105.60000000000001,-861.2911524469108
105.8,-860.958090016301
106.0,-860.6259361745203
106.2,-860.2946333532645
106.4,-859.9641233365458
106.60000000000001,-859.6343474442452
106.8,-859.3052467148146
107.0,-858.9767620833459
107.2,-858.6488345504376
107.4,-858.3214053391172
107.60000000000001,-857.9944160415502
107.8,-857.6678087611655
108.0,-857.3415262561034
108.2,-857.0155120861734
108.4,-856.6897107612303
108.60000000000001,-856.3640678871365
108.8,-856.0385303067677
109.0,-855.7130462359053
109.2,-855.3875653957999
109.4,-855.0620391455316
109.60000000000001,-854.7364206179741
109.8,-854.410664839525
110.0,-854.0847284974348
110.2,-853.7585677591297
110.4,-853.4321436341158
110.60000000000001,-853.1054259836512
110.8,-852.7783767563251
111.0,-852.4509622754937
111.2,-852.1231522579949
111.4,-851.794918405534
111.60000000000001,-851.4662340088379
111.8,-851.1370734110534
112.0,-850.8074110649145
112.2,-850.4772199340118
112.4,-850.1464688354578
112.60000000000001,-849.81511805555
112.8,-849.4831121224681
113.0,-849.1503678656245
113.2,-848.8167546591948
113.4,-848.482061925573
113.60000000000001,-848.1459470067801
113.8,-847.8078571129772
114.0,-847.466931834915
114.2,-847.1219418252816
114.4,-846.7714358812217
114.60000000000001,-846.4143916080251
114.8,-846.0514105990243
115.0,-845.6854640479048
115.2,-845.3206856056762
115.4,-844.9598740856374
115.60000000000001,-844.6033295035037
115.8,-844.2496736749799
116.0,-843.8971652332796
116.2,-843.5445345364167
116.4,-843.1913406806677
116.60000000000001,-842.8380124749615
116.8,-842.4855961970645
117.0,-842.1352802911193
117.2,-841.7879381316183
117.4,-841.4439248273234
117.60000000000001,-841.1031493153654
117.8,-840.7652719672743
118.0,-840.4298834621026
118.2,-840.0966099629624
118.4,-839.765153831792
118.60000000000001,-839.435297119047
118.8,-839.1068895127186
119.0,-838.7798326964327
119.2,-838.4540661696344
119.4,-838.1295559831701
119.60000000000001,-837.8062863324576
119.8,-837.484253474495
120.0,-837.1634613882676
120.2,-836.8439186930367
120.4,-836.5256364579569
120.60000000000001,-836.2086266395221
120.8,-835.8929009619641
121.0,-835.5784701122827
121.2,-835.2653431610796
121.4,-834.9535271475588
121.60000000000001,-834.6430267856047
121.8,-834.3338442605951
122.0,-834.0259790952891
122.2,-833.7194280691145
122.4,-833.4141851793703
122.60000000000001,-833.1102416357426
122.8,-832.8075858816064
123.0,-832.5062036370347
123.2,-832.2060779595419
123.4,-831.9071893193036
123.60000000000001,-831.6095156862455
123.8,-831.3130326267826
124.0,-831.0177134083129
124.2,-830.7235291098617
124.4,-830.4304487374261
124.60000000000001,-830.1384393427767
124.8,-829.8474661446669
125.0,-829.5574926516068
125.2,-829.2684807856559
125.4,-828.9803910069672
125.60000000000001,-828.6931824391535
125.8,-828.4068129958297
126.0,-828.1212395089468
126.2,-827.8364178596788
126.4,-827.5523031126718
126.60000000000001,-827.268849654362
126.8,-826.9860113358692
127.0,-826.7037416209237
127.2,-826.4219937396571
127.4,-826.140720849873
127.60000000000001,-825.8598762084209
127.8,-825.5794133554615
128.0,-825.2992863129915
128.2,-825.0194497958809
128.4,-824.7398594293118
128.6,-824.4604719621449
128.8,-824.1812454623227
129.0,-823.9021394788374
129.2,-823.6231151557656
129.4,-823.3441352878394
129.6,-823.0651643141638
129.8,-822.7861682558728
130.0,-822.5071146130907
130.2,-822.2279722439839
130.4,-821.9487112518356
130.6,-821.6693029040262
130.8,-821.3897196000423
131.0,-821.1099348961977
131.2,-820.8299235850585
131.4,-820.5496618198569
131.6,-820.2691272696089
131.8,-819.9882992893821
132.0,-819.7071590914801
132.2,-819.4256899061534
132.4,-819.143877123767
132.6,-818.861708413378
132.8,-818.5791738150265
133.0,-818.2962658044917
133.2,-818.0129793299118
133.4,-817.7293118196204
133.6,-817.445263159862
133.8,-817.1608356399139
134.0,-816.8760338604427
134.2,-816.5908645985858
134.4,-816.3053366201997
134.6,-816.0194604253891
134.8,-815.7332479074948
135.0,-815.4467118972968
135.2,-815.1598655521801
135.4,-814.8727215328304
135.6,-814.585290885563
135.8,-814.2975815139165
136.0,-814.0095960759526
136.2,-813.7213290822787
136.4,-813.4327628979978
136.6,-813.1438622886882
136.8,-812.8545671513406
137.0,-812.5647832712416
137.20000000000002,-812.2743716327643
137.4,-811.9831385147434
137.6,-811.6908320683194
137.8,-811.3971567476757
138.0,-811.1018231409226
138.20000000000002,-810.8046500953834
138.4,-810.505714182049
138.6,-810.2054898912911
138.8,-809.9048729166784
139.0,-809.6050059773742
139.20000000000002,-809.3069628825438
139.4,-809.0114716999901
139.6,-808.718822441606
139.8,-808.428952736351
140.0,-808.1416051491832
140.20000000000002,-807.8564628398714
140.4,-807.573229976408
140.6,-807.2916646688701
140.8,-807.0115838036095
141.0,-806.7328554382657
141.20000000000002,-806.4553877318234
141.4,-806.1791184541994
141.6,-805.9040064144396
141.8,-805.6300249305654
142.0,-805.3571570300285
142.20000000000002,-805.0853919835441
142.4,-804.8147228177359
142.6,-804.5451445271815
142.8,-804.2766527772706
143.0,-804.0092429451865
143.20000000000002,-803.7429093862468
143.4,-803.4776448388574
143.6,-803.2134398954419
143.8,-802.9502824696756
144.0,-802.6881571813358
144.20000000000002,-802.4270445553236
144.4,-802.1669198833946
144.6,-801.9077515114302
144.8,-801.6494981664532
145.0,-801.3921046825742
145.20000000000002,-801.135495052929
145.4,-800.8795610226912
145.6,-800.6241433398071
145.8,-800.3690013503895
146.0,-800.1137656923505
146.20000000000002,-799.8578718123863
146.4,-799.6004889280972
146.6,-799.3405102926976
146.8,-799.0767682575654
147.0,-798.8086850288919
147.20000000000002,-798.5372356730918
147.4,-798.2652847048644
147.6,-797.9963500720834
147.8,-797.7326984848386
148.0,-797.474660628062
148.20000000000002,-797.2213327950175
148.4,-796.9715010911126
148.6,-796.7241304214485
148.8,-796.4784768373323
149.0,-796.2340420983475
